fgas                density
0.0924230716795408  0.000565052729277349
0.0925444259892892  0.000788388564067447
0.0926657802990377  0.00109669283526474
0.0927871346087861  0.00150538818318767
0.0929084889185345  0.0020396795223962
0.0930298432282829  0.00272876091048131
0.0931511975380313  0.00360584736874387
0.0932725518477797  0.00470806185596736
0.0933939061575281  0.00607615724595612
0.0935152604672766  0.00777961886618668
0.093636614777025   0.00988899990916224
0.0937579690867734  0.0124203030275766
0.0938793233965218  0.0154182534992405
0.0940006777062702  0.0189234509336574
0.0941220320160186  0.0229702761106476
0.0942433863257671  0.027584726829293
0.0943647406355155  0.0327822386290179
0.0944860949452639  0.0386077619419155
0.0946074492550123  0.04504770660043
0.0947288035647607  0.0520063948604462
0.0948501578745091  0.0594248513665895
0.0949715121842575  0.0672275791730098
0.0950928664940059  0.0753242021794593
0.0952142208037544  0.083611889308872
0.0953355751135028  0.0919785549069962
0.0954569294232512  0.1002917210319
0.0955782837329996  0.108402016588787
0.095699638042748   0.116213257735419
0.0958209923524964  0.123643839189729
0.0959423466622448  0.130636656112431
0.0960637009719933  0.13716414794791
0.0961850552817417  0.143232596762411
0.0963064095914901  0.148885529129561
0.0964277639012385  0.154192827527653
0.0965491182109869  0.159335382700191
0.0966704725207353  0.164527032578371
0.0967918268304837  0.169985891823316
0.0969131811402322  0.175953245643067
0.0970345354499806  0.182685663979674
0.097155889759729   0.190446228315011
0.0972772440694774  0.199495054410024
0.0973985983792258  0.210246997487831
0.0975199526889742  0.222943382436503
0.0976413069987226  0.237621340771518
0.0977626613084711  0.254384148243392
0.0978840156182195  0.273279796494568
0.0980053699279679  0.294298319626424
0.0981267242377163  0.31737115838934
0.0982480785474647  0.342372643551203
0.0983694328572131  0.36926523114941
0.0984907871669615  0.397692682078935
0.0986121414767099  0.427260136103228
0.0987334957864584  0.45768180507112
0.0988548500962068  0.488676014369408
0.0989762044059552  0.51997916633947
0.0990975587157036  0.551359369146993
0.099218913025452   0.582629365330092
0.0993402673352004  0.613628581632967
0.0994616216449489  0.644324601814638
0.0995829759546973  0.674800614573808
0.0997043302644457  0.70519916930601
0.0998256845741941  0.73573237508003
0.0999470388839425  0.766673714052534
0.100068393193691   0.798347220603124
0.100189747503439   0.831114279950145
0.100311101813188   0.865576801629921
0.100432456122936   0.902132807655092
0.100553810432685   0.941035992615733
0.100675164742433   0.98257919039814
0.100796519052181   1.02699603830277
0.10091787336193    1.07445358108518
0.101039227671678   1.12504860432149
0.101160581981427   1.17880797085649
0.101281936291175   1.23604041623717
0.101403290600923   1.29641328067419
0.101524644910672   1.35963391055308
0.10164599922042    1.42557954321381
0.101767353530169   1.49416156664834
0.101888707839917   1.56534927686134
0.102010062149666   1.63919228063533
0.102131416459414   1.71584070430983
0.102252770769162   1.79601225943172
0.102374125078911   1.88003654143146
0.102495479388659   1.96839234345197
0.102616833698408   2.06181170587375
0.102738188008156   2.16111422126224
0.102859542317904   2.26717857202193
0.102980896627653   2.3809090716122
0.103102250937401   2.50319793690517
0.10322360524715    2.63620216450789
0.103344959556898   2.77991337761614
0.103466313866647   2.93439340691807
0.103587668176395   3.09986164504697
0.103709022486143   3.27629545451564
0.103830376795892   3.46341508770209
0.10395173110564    3.66067671965459
0.104073085415389   3.86727393860136
0.104194439725137   4.08300708473132
0.104315794034885   4.30537400192279
0.104437148344634   4.53252530973679
0.104558502654382   4.76278297170622
0.104679856964131   4.99441724588506
0.104801211273879   5.22569658519947
0.104922565583627   5.45493727045609
0.105043919893376   5.68055173833159
0.105165274203124   5.90016558933334
0.105286628512873   6.11294692474892
0.105407982822621   6.31820163717546
0.10552933713237    6.51535307296931
0.105650691442118   6.70409617599631
0.105772045751866   6.88439819369954
0.105893400061615   7.05649314148348
0.106014754371363   7.22087032638161
0.106136108681112   7.37744327564768
0.10625746299086    7.528303604947
0.106378817300608   7.67482127256054
0.106500171610357   7.81832831678043
0.106621525920105   7.96023443815673
0.106742880229854   8.10199247235706
0.106864234539602   8.2450640908764
0.106985588849351   8.39088607579444
0.107106943159099   8.54171923676198
0.107228297468847   8.69846604682896
0.107349651778596   8.86209748602591
0.107471006088344   9.03348265105159
0.107592360398093   9.21330110792959
0.107713714707841   9.40202928964421
0.107835069017589   9.59993101748527
0.107956423327338   9.80705245383901
0.108077777637086   10.0245429624514
0.108199131946835   10.2505135757676
0.108320486256583   10.4841800577503
0.108441840566331   10.7247116651083
0.10856319487608    10.971173500037
0.108684549185828   11.2225642338694
0.108805903495577   11.4778564940235
0.108927257805325   11.7360391204272
0.109048612115074   11.9963023623469
0.109169966424822   12.2574388505458
0.10929132073457    12.5188882282445
0.109412675044319   12.7802999376198
0.109534029354067   13.0415397915037
0.109655383663816   13.3026972042191
0.109776737973564   13.564085361583
0.109898092283312   13.8262369731881
0.110019446593061   14.0903637580997
0.110140800902809   14.3573607689194
0.110262155212558   14.628366048188
0.110383509522306   14.9046017699772
0.110504863832055   15.1873422581666
0.110626218141803   15.4778825623567
0.110747572451551   15.7775078971202
0.1108689267613     16.0875507948306
0.110990281071048   16.4111952300907
0.111111635380797   16.7477700414855
0.111232989690545   17.098112979726
0.111354344000293   17.4628922837212
0.111475698310042   17.8425870136207
0.11159705261979    18.2374692978016
0.111718406929539   18.6475889945432
0.111839761239287   19.0729529302725
0.111961115549036   19.5150002037847
0.112082469858784   19.9705616816143
0.112203824168532   20.4385768993691
0.112325178478281   20.9178026294151
0.112446532788029   21.4068529055839
0.112567887097778   21.9042469259789
0.112689241407526   22.4084638808954
0.112810595717274   22.918073813331
0.112931950027023   23.4318860922838
0.113053304336771   23.9480416929611
0.11317465864652    24.4657480116765
0.113296012956268   24.9845248692884
0.113417367266016   25.5042198041335
0.113538721575765   26.0250061296842
0.113660075885513   26.5473632649785
0.113781430195262   27.0721269320884
0.11390278450501    27.6009154953423
0.114024138814759   28.1344672934606
0.114145493124507   28.6737631458693
0.114266847434255   29.2195919918576
0.114388201744004   29.7724604842517
0.114509556053752   30.3325150199045
0.114630910363501   30.8994791901203
0.114752264673249   31.472748115209
0.114873618982997   32.0511077791103
0.114994973292746   32.6317214049413
0.115116327602494   33.2122566845578
0.115237681912243   33.79015365467
0.115359036221991   34.3627409907271
0.11548039053174    34.9273602282952
0.115601744841488   35.481494051873
0.115723099151236   36.0223491809676
0.115844453460985   36.5464321706018
0.115965807770733   37.0545341187408
0.116087162080482   37.5464145632536
0.11620851639023    38.0224877134919
0.116329870699978   38.4838056213602
0.116451225009727   38.9320156883398
0.116572579319475   39.3692937395871
0.116693933629224   39.7980576285344
0.116815287938972   40.2216458676204
0.11693664224872    40.6441686868472
0.117057996558469   41.0685702371662
0.117179350868217   41.4975078016808
0.117300705177966   41.9332216054102
0.117422059487714   42.3774185176609
0.117543413797463   42.8311722276916
0.117664768107211   43.2952831601798
0.117786122416959   43.7695522405382
0.117907476726708   44.2510204962394
0.118028831036456   44.7371806122935
0.118150185346205   45.2248806737466
0.118271539655953   45.7104244552159
0.118392893965701   46.1896889389939
0.11851424827545    46.658256340877
0.118635602585198   47.1104181773386
0.118756956894947   47.5392672745665
0.118878311204695   47.9424549703791
0.118999665514444   48.3163336319442
0.119121019824192   48.6578169568209
0.11924237413394    48.9644556420219
0.119363728443689   49.2344892654578
0.119485082753437   49.4668736635087
0.119606437063186   49.6590364567683
0.119727791372934   49.809945331246
0.119849145682682   49.925048392991
0.119970499992431   50.0061569643103
0.120091854302179   50.0554141197551
0.120213208611928   50.0751925418313
0.120334562921676   50.0679967709963
0.120455917231424   50.0363727295133
0.120577271541173   49.9815755925078
0.120698625850921   49.9059428648359
0.12081998016067    49.8138028275895
0.120941334470418   49.7071130558442
0.121062688780167   49.5876876143344
0.121184043089915   49.4572287137353
0.121305397399663   49.3173654913391
0.121426751709412   49.1696974932844
0.12154810601916    49.0155535637319
0.121669460328909   48.8570501173645
0.121790814638657   48.6966326607307
0.121912168948405   48.536292329769
0.122033523258154   48.3781282245
0.122154877567902   48.2243182957319
0.122276231877651   48.0770770469054
0.122397586187399   47.9386008710251
0.122518940497148   47.8120348899456
0.122640294806896   47.6999113185859
0.122761649116644   47.6026377763348
0.122883003426393   47.5211750476014
0.123004357736141   47.4559762920202
0.12312571204589    47.4069301647532
0.123247066355638   47.3733187412219
0.123368420665386   47.3537921891718
0.123489774975135   47.3470703595405
0.123611129284883   47.3495044408516
0.123732483594632   47.3566093566638
0.12385383790438    47.3645361418649
0.123975192214129   47.3692129954262
0.124096546523877   47.3664892391364
0.124217900833625   47.3522881727077
0.124339255143374   47.3227652654136
0.124460609453122   47.2724776312611
0.124581963762871   47.1982724694467
0.124703318072619   47.1000739694225
0.124824672382367   46.9772004672778
0.124946026692116   46.8298717373314
0.125067381001864   46.6591954632528
0.125188735311613   46.4671188185047
0.125310089621361   46.2563458404047
0.125431443931109   46.0292438712568
0.125552798240858   45.7911794478598
0.125674152550606   45.5473190589979
0.125795506860355   45.3016141203111
0.125916861170103   45.057692834616
0.126038215479852   44.8186977221577
0.1261595697896     44.5871469339356
0.126280924099348   44.3648232416965
0.126402278409097   44.1537013828944
0.126523632718845   43.9531562895362
0.126644987028594   43.7612436631205
0.126766341338342   43.5760289656478
0.12688769564809    43.3950385172967
0.127009049957839   43.2153966452728
0.127130404267587   43.033970911496
0.127251758577336   42.8475207340247
0.127373112887084   42.6515509389854
0.127494467196832   42.4428047272918
0.127615821506581   42.21940984534
0.127737175816329   41.9794255781507
0.127858530126078   41.7213820358822
0.127979884435826   41.4442780281703
0.128101238745575   41.1475578083014
0.128222593055323   40.8310684454353
0.128343947365071   40.4928591364372
0.12846530167482    40.1347150027836
0.128586655984568   39.758347181998
0.128708010294317   39.3644001475637
0.128829364604065   38.9534490501116
0.128950718913813   38.5259492249965
0.129072073223562   38.0822010208459
0.12919342753331    37.6223312494194
0.129314781843059   37.144330902538
0.129436136152807   36.6490601612818
0.129557490462556   36.1370127065714
0.129678844772304   35.6079453649674
0.129800199082052   35.0617436580494
0.129921553391801   34.4984991241467
0.130042907701549   33.9185818119596
0.130164262011298   33.3227049991029
0.130285616321046   32.7104157018623
0.130406970630794   32.0850853805336
0.130528324940543   31.4496263919232
0.130649679250291   30.8067011346121
0.13077103356004    30.1592800554379
0.130892387869788   29.5105638875806
0.131013742179537   28.8638951489702
0.131135096489285   28.2226614269278
0.131256450799033   27.591877651814
0.131377805108782   26.9744388265832
0.13149915941853    26.372598932278
0.131620513728279   25.7885279605508
0.131741868038027   25.2239266557176
0.131863222347775   24.6799964047515
0.131984576657524   24.157424006367
0.132105930967272   23.6563809960493
0.132227285277021   23.1792525309188
0.132348639586769   22.7225956656654
0.132469993896517   22.2842774630434
0.132591348206266   21.8625044835607
0.132712702516014   21.4552303948931
0.132834056825763   21.0602140911492
0.132955411135511   20.6750775655472
0.13307676544526    20.2973628848221
0.133198119755008   19.9248230565405
0.133319474064756   19.5539750268461
0.133440828374505   19.1824684675823
0.133562182684253   18.8082512249233
0.133683536994002   18.4294964532457
0.13380489130375    18.0446400899094
0.133926245613498   17.6524149695012
0.134047599923247   17.2518812066654
0.134168954232995   16.8411255469616
0.134290308542744   16.4212638372241
0.134411662852492   15.9929284912712
0.134533017162241   15.5569539975774
0.134654371471989   15.1145258930127
0.134775725781737   14.6671507488283
0.134897080091486   14.2166179179636
0.135018434401234   13.7649534124644
0.135139788710983   13.3150311652677
0.135261143020731   12.8694726051007
0.135382497330479   12.4305776729812
0.135503851640228   12.000573234521
0.135625205949976   11.5815357385319
0.135746560259725   11.1753404474946
0.135867914569473   10.7836181496689
0.135989268879221   10.4077202846289
0.13611062318897    10.0515261391284
0.136231977498718   9.71313736581527
0.136353331808467   9.39262088431073
0.136474686118215   9.08989104320705
0.136596040427964   8.80461254014239
0.136717394737712   8.53623213674082
0.13683874904746    8.28401268157028
0.136960103357209   8.04706831773187
0.137081457666957   7.8265167864186
0.137202811976706   7.61872713903751
0.137324166286454   7.4225466833681
0.137445520596202   7.23683930858239
0.137566874905951   7.06047738373359
0.137688229215699   6.89235144710432
0.137809583525448   6.73137699107827
0.137930937835196   6.57652008481774
0.138052292144945   6.42732996932104
0.138173646454693   6.28184759159168
0.138295000764441   6.1391449462928
0.13841635507419    5.99833437835186
0.138537709383938   5.858573921049
0.138659063693687   5.71907416046793
0.138780418003435   5.57910657603275
0.138901772313183   5.43799493258591
0.139023126622932   5.29480979984408
0.13914448093268    5.14933361065411
0.139265835242429   5.00129313295671
0.139387189552177   4.85054788491042
0.139508543861926   4.69709807784562
0.139629898171674   4.54108989820658
0.139751252481422   4.38281774609713
0.139872606791171   4.22270576464735
0.139993961100919   4.06136103804511
0.140115315410668   3.89984853395096
0.140236669720416   3.73904332577256
0.140358024030164   3.57987711164998
0.140479378339913   3.42330806004282
0.140600732649661   3.27028914377148
0.14072208695941    3.12173574966011
0.140843441269158   2.97862932115555
0.140964795578906   2.84259719392368
0.141086149888655   2.71335798556798
0.141207504198403   2.5912384541338
0.141328858508152   2.47639345702831
0.1414502128179     2.36880888671417
0.141571567127649   2.26831105267797
0.141692921437397   2.17458213192002
0.141814275747145   2.08733891286214
0.141935630056894   2.00653406062351
0.142056984366642   1.93067342432113
0.142178338676391   1.85915277450846
0.142299692986139   1.79140378415601
0.142421047295887   1.72691728743258
0.142542401605636   1.66526158124545
0.142663755915384   1.60609535085334
0.142785110225133   1.54924555721117
0.142906464534881   1.49477149239263
0.14302781884463    1.44236885406803
0.143149173154378   1.39208706555106
0.143270527464126   1.34400796224948
0.143391881773875   1.29822446833942
0.143513236083623   1.25482017371726
0.143634590393372   1.21385060311326
0.14375594470312    1.17542075539601
0.143877299012868   1.13965768205261
0.143998653322617   1.10609242437599
0.144120007632365   1.07451143270179
0.144241361942114   1.04465509164535
0.144362716251862   1.01623160718444
0.144484070561611   0.98893284448934
0.144605424871359   0.962451429137606
0.144726779181107   0.936509044754571
0.144848133490856   0.910828903517437
0.144969487800604   0.885196540293328
0.145090842110353   0.859530516672061
0.145212196420101   0.83382034153728
0.145333550729849   0.808123662305233
0.145454905039598   0.782560119018919
0.145576259349346   0.757302172524931
0.145697613659095   0.732605505880397
0.145818967968843   0.708826602169482
0.145940322278591   0.686142783669998
0.14606167658834    0.664770112745077
0.146183030898088   0.644889432912789
0.146304385207837   0.626636776897792
0.146425739517585   0.610096194796372
0.146547093827334   0.595295102852437
0.146668448137082   0.582292442578064
0.14678980244683    0.571037460626229
0.146911156756579   0.561167862233919
0.147032511066327   0.552472419682513
0.147153865376076   0.544712837208219
0.147275219685824   0.537633570557916
0.147396573995572   0.530971658727598
0.147517928305321   0.524466333787438
0.147639282615069   0.517844628812299
0.147760636924818   0.510811397064872
0.147881991234566   0.50320214282578
0.148003345544314   0.494877864370648
0.148124699854063   0.485738227169195
0.148246054163811   0.4757220395959
0.14836740847356    0.464806530809986
0.148488762783308   0.453005491092622
0.148610117093057   0.440315926361933
0.148731471402805   0.426824459505505
0.148852825712553   0.412725307260754
0.148974180022302   0.398141791724202
0.14909553433205    0.383202297637633
0.149216888641799   0.368034589814109
0.149338242951547   0.352760556242459
0.149459597261295   0.337491497814791
0.149580951571044   0.322338640725485
0.149702305880792   0.307397933973153
0.149823660190541   0.292703509183889
0.149945014500289   0.278280450955722
0.150066368810038   0.264136814502034
0.150187723119786   0.250266343372791
0.150309077429534   0.236651733088183
0.150430431739283   0.223268315851172
0.150551786049031   0.210101854673647
0.15067314035878    0.197121233886278
0.150794494668528   0.18429382022011
0.150915848978276   0.171615157235484
0.151037203288025   0.159092843559905
0.151158557597773   0.146747059184685
0.151279911907522   0.134610342240143
0.15140126621727    0.122726644579448
0.151522620527019   0.111183313602288
0.151643974836767   0.100059102860953
0.151765329146515   0.0893935504655836
0.151886683456264   0.0792490792716277
0.152008037766012   0.0696828512458399
0.152129392075761   0.0607443308273488
0.152250746385509   0.0524732532571174
0.152372100695257   0.0448980461957191
0.152493455005006   0.0381004786323787
0.152614809314754   0.0320661241382946
0.152736163624503   0.0267238070631977
0.152857517934251   0.0220455676361571
0.152978872243999   0.0179948265912531
0.153100226553748   0.0145280979006998
0.153221580863496   0.011596764634001
0.153342935173245   0.00914886396091101
0.153464289482993   0.00716630694134731
0.153585643792742   0.00556905553642555
0.15370699810249    0.00427817456739365
0.153828352412238   0.00324753772461117
0.153949706721987   0.00243501064845477
0.154071061031735   0.00180275734955244
0.154192415341484   0.00131737865140874
0.154313769651232   0.000949899767576137
0.15443512396098    0.000682678407607554
